Energy (keV),Intensity (CPS)
-10.691028186619306,0.0
9.347175955551776,0.0
29.38538009772286,0.0
49.42358423989394,0.0
69.46178838206502,0.0
89.4999925242361,0.0
109.53819666640719,0.0
129.57640080857828,0.0
149.61460495074937,0.0
169.65280909292045,0.0
189.69101323509153,0.0
209.72921737726261,0.0
229.7674215194337,0.0
249.80562566160478,0.0
269.84382980377586,0.12417265675883711
289.88203394594694,0.37251797027651135
309.920238088118,0.37251797027651135
329.9584422302891,0.8692085973118597
349.9966463724602,2.235107821659068
370.0348505146313,3.1043164189709276
390.07305465680236,4.097697673041624
410.11125879897344,5.711942210906507
430.1494629411445,6.8294961217360415
450.1876670833156,8.56791331635976
470.2258712254867,10.80302113801883
490.26407536765777,12.91395630291906
510.30227950982885,14.404028184025105
530.340483652,16.887481319201846
550.378687794171,18.87424382734324
570.416891936342,19.991797738172775
590.4550960785132,21.10935164900231
610.4933002206843,23.344459470661377
630.5315043628553,24.710358695008583
650.5697085050264,21.85438758955533
670.6079126471975,25.82791260583812
690.6461167893686,28.932229024809047
710.6843209315397,25.82791260583812
730.7225250737107,25.082876665285095
750.7607292158818,28.683883711291372
770.798933358053,29.925610278879745
790.837137500224,28.435538397773698
810.875341642395,30.546473562673928
830.9135457845662,31.167336846468114
850.9517499267373,31.664027473503463
870.9899540689083,29.67726496536207
891.0281582110794,33.89913529516253
911.0663623532505,31.41568215998579
931.1045664954216,27.317984486944166
951.1427706375927,28.683883711291372
971.1809747797637,27.93884777073835
991.2191789219348,28.683883711291372
1011.257383064106,27.81467511397951
1031.2955872062769,32.65740872757416
1051.333791348448,30.298128249156257
1071.3719954906192,28.559711054532535
1091.4101996327902,29.67726496536207
1111.4484037749612,29.30474699508556
1131.4866079171322,23.965322754455563
1151.5248120593033,27.06963917342649
1171.5630162014745,29.67726496536207
1191.6012203436455,27.19381183018533
1211.6394244858166,29.428919651844396
1231.6776286279878,28.683883711291372
1251.7158327701588,29.30474699508556
1271.7540369123299,27.06963917342649
1291.792241054501,28.187193084256023
1311.830445196672,28.683883711291372
1331.8686493388432,25.952085262596956
1351.9068534810142,28.559711054532535
1371.9450576231852,23.841150097696726
1391.9832617653565,26.821293859908817
1412.0214659075275,26.821293859908817
1432.0596700496985,28.559711054532535
1452.0978741918696,27.93884777073835
1472.1360783340406,25.82791260583812
1492.1742824762118,25.082876665285095
1512.2124866183829,26.448775889632305
1532.2506907605539,21.978560246314167
1552.2888949027251,23.59280478417905
1572.3270990448962,25.70373994907928
1592.3653031870672,22.72359618686719
1612.4035073292382,23.965322754455563
1632.4417114714092,21.730214932796493
1652.4799156135805,21.60604227603766
1672.5181197557515,22.599423530108353
1692.5563238979225,21.730214932796493
1712.5945280400938,22.22690555983184
1732.6327321822648,20.364315708449286
1752.6709363244358,23.841150097696726
1772.7091404666069,18.750071170584405
1792.747344608778,20.61266102196696
1812.7855487509491,23.22028681390254
1832.8237528931202,22.35107821659068
1852.8619570352912,23.468632127420214
1872.9001611774625,22.971941500384865
1892.9383653196335,23.468632127420214
1912.9765694618045,20.985178992243473
1933.0147736039755,20.985178992243473
1953.0529777461466,18.998416484102076
1973.0911818883178,19.370934454378588
1993.1293860304888,21.233524305761147
2013.1675901726599,21.357696962519984
2033.205794314831,21.60604227603766
2053.243998457002,20.364315708449286
2073.282202599173,19.619279767896263
2093.3204067413444,18.750071170584405
2113.358610883515,17.880862573272545
2133.3968150256865,19.619279767896263
2153.4350191678577,20.985178992243473
2173.4732233100285,16.887481319201846
2193.5114274521998,20.11597039493161
2213.5496315943706,16.887481319201846
2233.587835736542,19.867625081413937
2253.626039878713,17.880862573272545
2273.664244020884,20.861006335484635
2293.702448163055,16.390790692166497
2313.740652305226,17.25999928947836
2333.778856447397,18.750071170584405
2353.8170605895684,16.390790692166497
2373.855264731739,16.887481319201846
2393.8934688739105,17.880862573272545
2413.9316730160817,18.005035230031382
2433.9698771582525,17.756689916513707
2454.008081300424,14.528200840783942
2474.046285442595,16.390790692166497
2494.084489584766,15.024891467819291
2514.122693726937,14.776546154301617
2534.160897869108,16.142445378648823
2554.199102011279,15.273236781336964
2574.2373061534504,14.528200840783942
2594.275510295621,13.783164900230918
2614.3137144377924,17.25999928947836
2634.3519185799632,15.024891467819291
2654.3901227221345,15.149064124578128
2674.4283268643057,15.397409438095801
2694.4665310064765,15.397409438095801
2714.504735148648,16.018272721889986
2734.542939290819,14.404028184025105
2754.58114343299,13.907337556989756
2774.619347575161,11.423884421813014
2794.6575517173324,11.796402392089526
2814.695755859503,11.796402392089526
2834.7339600016744,11.920575048848363
2854.772164143845,13.658992243472083
2874.8103682860165,11.051366451536502
2894.8485724281877,12.293093019124873
2914.8867765703585,13.286474273195571
2934.9249807125298,12.0447477056072
2954.9631848547006,15.645754751613476
2975.001388996872,14.776546154301617
2995.039593139043,11.423884421813014
3015.077797281214,12.293093019124873
3035.116001423385,10.554675824501155
3055.1542055655564,10.057985197465806
3075.192409707727,9.561294570430457
3095.2306138498984,10.057985197465806
3115.2688179920697,10.80302113801883
3135.3070221342405,9.561294570430457
3155.3452262764117,10.182157854224643
3175.3834304185825,10.182157854224643
3195.421634560754,9.809639883948131
3215.459838702925,9.685467227189294
3235.498042845096,10.30633051098348
3255.536246987267,7.077841435253715
3275.574451129438,9.561294570430457
3295.612655271609,10.554675824501155
3315.6508594137804,7.6987047190479005
3335.689063555951,8.071222689324411
3355.7272676981224,6.705323464977204
3375.7654718402937,7.202014092012552
3395.8036759824645,8.319568002842086
3415.8418801246357,8.816258629877435
3435.880084266807,7.6987047190479005
3455.918288408978,7.947050032565575
3475.956492551149,6.953668778494878
3495.99469669332,8.443740659600923
3516.032900835491,6.705323464977204
3536.0711049776623,8.071222689324411
3556.109309119833,7.077841435253715
3576.1475132620044,5.9602875244241815
3596.185717404175,8.319568002842086
3616.2239215463464,6.581150808218367
3636.2621256885177,7.32618674877139
3656.3003298306885,7.32618674877139
3676.3385339728598,5.58776955414767
3696.376738115031,5.091078927112322
3716.414942257202,6.581150808218367
3736.453146399373,6.705323464977204
3756.4913505415443,5.4635968973888325
3776.529554683715,5.091078927112322
3796.5677588258864,4.842733613594647
3816.605962968057,5.339424240629996
3836.6441671102284,5.58776955414767
3856.6823712523997,4.966906270353484
3876.7205753945705,5.215251583871159
3896.7587795367417,4.470215643318136
3916.7969836789125,4.097697673041624
3936.8351878210838,4.346042986559299
3956.873391963255,3.476834389247439
3976.911596105426,5.091078927112322
3996.949800247597,4.470215643318136
4016.9880043897683,3.9735250162827875
4037.026208531939,3.352661732488602
4057.0644126741104,3.8493523595239503
4077.1026168162816,3.228489075729765
4097.140820958452,5.4635968973888325
4117.179025100623,3.228489075729765
4137.217229242795,3.9735250162827875
4157.255433384966,2.483453135176742
4177.2936375271365,3.476834389247439
4197.331841669308,2.235107821659068
4217.370045811479,3.228489075729765
4237.40824995365,3.601007046006276
4257.4464540958215,4.221870329800462
4277.484658237992,2.9801437622120908
4297.522862380163,4.097697673041624
4317.561066522335,2.110935164900231
4337.599270664506,3.228489075729765
4357.637474806676,3.476834389247439
4377.675678948847,2.235107821659068
4397.713883091019,3.601007046006276
4417.75208723319,2.235107821659068
4437.7902913753605,2.7317984486944162
4457.828495517532,1.6142445378648824
4477.866699659703,2.483453135176742
4497.904903801874,2.6076257919355794
4517.943107944046,2.6076257919355794
4537.981312086216,1.241726567588371
4558.019516228387,3.352661732488602
4578.057720370559,1.9867625081413938
4598.09592451273,2.235107821659068
4618.1341286549,1.6142445378648824
4638.172332797071,1.7384171946237195
4658.210536939243,1.8625898513825567
4678.248741081414,2.359280478417905
4698.286945223585,2.235107821659068
4718.325149365756,2.110935164900231
4738.363353507927,1.3658992243472081
4758.401557650098,2.483453135176742
4778.43976179227,1.6142445378648824
4798.47796593444,1.7384171946237195
4818.516170076611,1.8625898513825567
4838.554374218783,1.3658992243472081
4858.592578360954,1.117553910829534
4878.6307825031245,2.235107821659068
4898.668986645296,2.483453135176742
4918.707190787467,2.483453135176742
4938.745394929638,1.241726567588371
4958.7835990718095,2.7317984486944162
4978.82180321398,1.8625898513825567
4998.860007356151,1.9867625081413938
5018.898211498322,2.359280478417905
5038.936415640494,1.9867625081413938
5058.974619782664,1.241726567588371
5079.012823924835,1.241726567588371
5099.051028067007,2.359280478417905
5119.089232209178,1.241726567588371
5139.1274363513485,0.9933812540706969
5159.16564049352,2.110935164900231
5179.203844635691,2.110935164900231
5199.242048777862,1.3658992243472081
5219.2802529200335,1.241726567588371
5239.318457062204,1.4900718811060454
5259.356661204375,2.359280478417905
5279.394865346546,1.8625898513825567
5299.433069488718,1.4900718811060454
5319.471273630888,2.483453135176742
5339.509477773059,3.352661732488602
5359.547681915231,3.1043164189709276
5379.585886057402,2.8559711054532535
5399.6240901995725,4.71856095683581
5419.662294341744,4.470215643318136
5439.700498483915,3.7251797027651135
5459.738702626086,2.8559711054532535
5479.7769067682575,4.470215643318136
5499.815110910428,1.8625898513825567
5519.853315052599,1.6142445378648824
5539.891519194771,1.3658992243472081
5559.929723336942,1.7384171946237195
5579.967927479112,1.8625898513825567
5600.006131621284,0.9933812540706969
5620.044335763455,1.6142445378648824
5640.082539905626,1.4900718811060454
5660.1207440477965,1.241726567588371
5680.158948189968,1.6142445378648824
5700.197152332139,0.7450359405530227
5720.23535647431,1.6142445378648824
5740.2735606164815,1.7384171946237195
5760.311764758652,0.6208632837941855
5780.349968900823,1.6142445378648824
5800.388173042995,0.9933812540706969
5820.426377185166,0.8692085973118597
5840.464581327336,1.117553910829534
5860.502785469508,1.9867625081413938
5880.540989611679,1.241726567588371
5900.57919375385,2.9801437622120908
5920.6173978960205,2.8559711054532535
5940.655602038192,2.110935164900231
5960.693806180363,1.7384171946237195
5980.732010322534,1.9867625081413938
6000.7702144647055,0.9933812540706969
6020.808418606876,1.241726567588371
6040.846622749047,0.9933812540706969
6060.884826891219,0.9933812540706969
6080.92303103339,0.7450359405530227
6100.96123517556,0.7450359405530227
6120.999439317732,0.6208632837941855
6141.037643459903,1.3658992243472081
6161.075847602074,0.8692085973118597
6181.114051744245,1.117553910829534
6201.152255886416,1.4900718811060454
6221.190460028587,1.8625898513825567
6241.228664170759,2.110935164900231
6261.26686831293,1.6142445378648824
6281.3050724551,1.4900718811060454
6301.343276597271,4.346042986559299
6321.381480739443,3.8493523595239503
6341.419684881614,5.091078927112322
6361.457889023784,8.319568002842086
6381.496093165956,6.332805494700692
6401.534297308127,8.071222689324411
6421.572501450298,8.692085973118598
6441.6107055924695,5.58776955414767
6461.64890973464,4.594388300076973
6481.687113876811,3.9735250162827875
6501.725318018983,2.359280478417905
6521.763522161154,1.9867625081413938
6541.801726303324,0.6208632837941855
6561.839930445495,0.9933812540706969
6581.878134587667,0.9933812540706969
6601.916338729838,1.241726567588371
6621.9545428720085,0.8692085973118597
6641.99274701418,1.117553910829534
6662.030951156351,0.37251797027651135
6682.069155298522,0.8692085973118597
6702.1073594406935,0.8692085973118597
6722.145563582864,0.9933812540706969
6742.183767725035,1.241726567588371
6762.221971867207,1.7384171946237195
6782.260176009378,1.241726567588371
6802.298380151548,2.6076257919355794
6822.33658429372,1.4900718811060454
6842.374788435891,1.6142445378648824
6862.412992578062,1.241726567588371
6882.451196720233,1.3658992243472081
6902.489400862404,1.7384171946237195
6922.527605004575,1.8625898513825567
6942.565809146746,1.7384171946237195
6962.6040132889175,1.7384171946237195
6982.642217431088,2.483453135176742
7002.680421573259,1.3658992243472081
7022.718625715431,2.110935164900231
7042.756829857602,2.110935164900231
7062.795033999772,1.4900718811060454
7082.833238141944,1.4900718811060454
7102.871442284115,1.8625898513825567
7122.909646426286,1.4900718811060454
7142.947850568457,1.8625898513825567
7162.986054710628,1.241726567588371
7183.024258852799,2.235107821659068
7203.06246299497,2.110935164900231
7223.1006671371415,0.9933812540706969
7243.138871279312,1.3658992243472081
7263.177075421483,1.117553910829534
7283.215279563655,0.8692085973118597
7303.253483705826,1.4900718811060454
7323.291687847996,1.117553910829534
7343.329891990168,2.110935164900231
7363.368096132339,2.110935164900231
7383.40630027451,1.241726567588371
7403.444504416681,0.9933812540706969
7423.482708558852,2.235107821659068
7443.520912701023,2.359280478417905
7463.559116843195,2.8559711054532535
7483.5973209853655,3.1043164189709276
7503.635525127536,1.7384171946237195
7523.673729269708,2.110935164900231
7543.711933411879,1.7384171946237195
7563.75013755405,1.7384171946237195
7583.78834169622,1.7384171946237195
7603.826545838392,1.6142445378648824
7623.864749980563,1.241726567588371
7643.902954122734,1.3658992243472081
7663.941158264905,1.9867625081413938
7683.979362407076,1.6142445378648824
7704.017566549247,2.8559711054532535
7724.055770691419,2.359280478417905
7744.0939748335895,4.346042986559299
7764.13217897576,2.8559711054532535
7784.170383117932,2.7317984486944162
7804.208587260103,4.097697673041624
7824.246791402274,4.966906270353484
7844.284995544444,4.097697673041624
7864.323199686616,3.476834389247439
7884.361403828787,6.705323464977204
7904.399607970958,11.299711765054177
7924.437812113129,19.619279767896263
7944.4760162553,24.83453135176742
7964.514220397471,34.89251654923323
7984.552424539643,49.17237207649949
8004.5906286818135,63.07970963348925
8024.628832823984,74.50359405530227
8044.667036966156,79.71884563917342
8064.705241108327,70.40589638226064
8084.743445250498,66.18402605246018
8104.781649392669,47.93064550891113
8124.81985353484,35.1408618627509
8144.858057677011,22.847768843626028
8164.896261819183,12.168920362366038
8184.934465961353,6.8294961217360415
8204.972670103525,4.470215643318136
8225.010874245696,2.7317984486944162
8245.049078387867,3.352661732488602
8265.08728253004,4.097697673041624
8285.12548667221,3.228489075729765
8305.163690814381,2.6076257919355794
8325.201894956552,2.110935164900231
8345.240099098723,3.1043164189709276
8365.278303240893,3.228489075729765
8385.316507383064,4.594388300076973
8405.354711525237,4.470215643318136
8425.392915667408,6.45697815145953
8445.431119809578,10.182157854224643
8465.46932395175,14.031510213748593
8485.50752809392,24.462013381490912
8505.54573223609,44.20546580614601
8525.583936378263,76.73870187696133
8545.622140520434,119.20575048848363
8565.660344662605,169.24733116229498
8585.698548804776,215.56373213334123
8605.736752946947,270.5722190775061
8625.774957089117,276.90502457220674
8645.81316123129,278.89178708034814
8665.85136537346,239.03236426076143
8685.889569515632,213.20445165492333
8705.927773657802,155.33999360530524
8725.965977799973,101.32488791521108
8746.004181942144,65.31481745514832
8766.042386084315,37.00345171413346
8786.080590226487,22.72359618686719
8806.118794368658,18.87424382734324
8826.156998510829,13.783164900230918
8846.195202653,15.397409438095801
8866.23340679517,19.7434524246551
8886.271610937341,18.87424382734324
8906.309815079514,20.985178992243473
8926.348019221685,20.11597039493161
8946.386223363856,15.521582094854638
8966.424427506026,16.639136005684172
8986.462631648197,9.685467227189294
9006.500835790368,7.202014092012552
9026.539039932539,4.594388300076973
9046.577244074711,3.476834389247439
9066.615448216882,2.483453135176742
9086.653652359053,2.110935164900231
9106.691856501224,1.7384171946237195
9126.730060643395,2.359280478417905
9146.768264785565,1.8625898513825567
9166.806468927738,2.235107821659068
9186.844673069909,2.359280478417905
9206.88287721208,2.8559711054532535
9226.92108135425,2.235107821659068
9246.959285496421,2.7317984486944162
9266.997489638592,2.8559711054532535
9287.035693780763,3.9735250162827875
9307.073897922935,5.091078927112322
9327.112102065106,6.581150808218367
9347.150306207277,8.56791331635976
9367.188510349448,11.051366451536502
9387.226714491619,13.286474273195571
9407.26491863379,14.65237349754278
9427.303122775962,18.12920788679022
9447.341326918133,24.83453135176742
9467.379531060304,26.324603232873468
9487.417735202474,27.81467511397951
9507.455939344645,36.879279057374625
9527.494143486816,44.45381111966368
9547.532347628989,51.40747989815856
9567.57055177116,47.68230019539345
9587.60875591333,50.66244395760554
9607.646960055501,40.23194078986322
9627.685164197672,39.4869048493102
9647.723368339843,25.70373994907928
9667.761572482013,20.61266102196696
9687.799776624186,16.390790692166497
9707.837980766357,10.182157854224643
9727.876184908528,4.966906270353484
9747.914389050698,3.8493523595239503
9767.95259319287,2.359280478417905
9787.99079733504,2.359280478417905
9808.029001477213,1.6142445378648824
9828.067205619383,1.4900718811060454
9848.105409761554,1.8625898513825567
9868.143613903725,1.241726567588371
9888.181818045896,1.3658992243472081
9908.220022188067,1.3658992243472081
9928.25822633024,1.241726567588371
9948.29643047241,1.3658992243472081
9968.33463461458,1.4900718811060454
9988.372838756752,1.7384171946237195
10008.411042898922,1.8625898513825567
10028.449247041093,1.117553910829534
10048.487451183264,0.8692085973118597
10068.525655325437,0.9933812540706969
10088.563859467607,1.117553910829534
10108.602063609778,1.8625898513825567
10128.640267751949,1.4900718811060454
10148.67847189412,2.110935164900231
10168.71667603629,2.7317984486944162
10188.754880178463,2.110935164900231
10208.793084320634,1.8625898513825567
10228.831288462805,2.6076257919355794
10248.869492604976,1.8625898513825567
10268.907696747146,2.6076257919355794
10288.945900889317,2.235107821659068
10308.984105031488,1.9867625081413938
10329.02230917366,2.9801437622120908
10349.060513315831,2.483453135176742
10369.098717458002,3.228489075729765
10389.136921600173,4.346042986559299
10409.175125742344,1.117553910829534
10429.213329884515,3.8493523595239503
10449.251534026687,3.7251797027651135
10469.289738168858,4.470215643318136
10489.327942311029,5.836114867665344
10509.3661464532,4.097697673041624
10529.40435059537,7.077841435253715
10549.442554737541,5.58776955414767
10569.480758879712,7.077841435253715
10589.518963021885,9.312949256912784
10609.557167164055,15.769927408372313
10629.595371306226,19.867625081413937
10649.633575448397,29.056401681567884
10669.671779590568,39.61107750606904
10689.709983732739,60.72042915507134
10709.748187874911,76.24201124992598
10729.786392017082,110.38949185860619
10749.824596159253,148.01380685653385
10769.862800301424,173.59337414885428
10789.901004443595,224.37999076321867
10809.939208585765,262.8735143584582
10829.977412727938,274.42157143703
10850.015616870109,266.47452140446444
10870.05382101228,251.6979752501628
10890.09202515445,210.8451711765054
10910.130229296621,166.6397053703594
10930.168433438792,129.63625365622593
10950.206637580963,91.76359334478063
10970.244841723135,54.884314287406006
