Energy (keV),Intensity (CPS)
-10.691028186619306,0.0
9.347175955551776,0.0
29.38538009772286,0.0
49.42358423989394,0.0
69.46178838206502,0.0
89.4999925242361,0.0
109.53819666640719,0.0
129.57640080857828,0.0
149.61460495074937,0.0
169.65280909292045,0.0
189.69101323509153,0.0
209.72921737726261,0.0
229.7674215194337,0.0
249.80562566160478,0.0
269.84382980377586,0.24843713331672468
289.88203394594694,0.6210928332918118
309.920238088118,0.6210928332918118
329.9584422302891,0.745311399950174
349.9966463724602,1.7390599332170726
370.0348505146313,3.3539012997757833
390.07305465680236,4.844524099676131
410.11125879897344,6.459365466234842
430.1494629411445,6.583584032893204
450.1876670833156,8.695299666085363
470.2258712254867,10.807015299277523
490.26407536765777,12.918730932469684
510.30227950982885,15.030446565661842
530.340483652,17.639036465487454
550.378687794171,19.62653353202125
570.416891936342,19.999189231996336
590.4550960785132,21.24137489857996
610.4933002206843,23.84996479840557
630.5315043628553,24.098401931722293
650.5697085050264,25.216369031647556
670.6079126471975,25.46480616496428
690.6461167893686,28.446051764764977
710.6843209315397,27.824958931473162
730.7225250737107,28.446051764764977
750.7607292158818,27.824958931473162
770.798933358053,28.321833198106614
790.837137500224,26.831210398206267
810.875341642395,28.19761463144825
830.9135457845662,29.315581731373513
850.9517499267373,27.700740364814802
870.9899540689083,29.81245599800696
891.0281582110794,29.81245599800696
911.0663623532505,32.17260876451584
931.1045664954216,31.42729736456567
951.1427706375927,30.6819859646155
971.1809747797637,32.91792016446602
991.2191789219348,34.03588726439128
1011.257383064106,33.78745013107456
1031.2955872062769,28.19761463144825
1051.333791348448,30.80620453127386
1071.3719954906192,28.446051764764977
1091.4101996327902,29.315581731373513
1111.4484037749612,31.79995306454076
1131.4866079171322,27.20386609818135
1151.5248120593033,30.80620453127386
1171.5630162014745,29.06714459805679
1191.6012203436455,29.06714459805679
1211.6394244858166,28.321833198106614
1231.6776286279878,31.551515931224035
1251.7158327701588,30.557767397957136
1271.7540369123299,27.328084664839714
1291.792241054501,28.19761463144825
1311.830445196672,28.321833198106614
1331.8686493388432,29.6882374313486
1351.9068534810142,26.706991831547903
1371.9450576231852,26.955428964864627
1391.9832617653565,25.340587598305916
1412.0214659075275,22.23512343184686
1432.0596700496985,25.092150464989192
1452.0978741918696,26.45855469823118
1472.1360783340406,26.831210398206267
1492.1742824762118,24.47105763169738
1512.2124866183829,26.58277326488954
1532.2506907605539,23.35309053177212
1552.2888949027251,22.85621626513867
1572.3270990448962,23.974183365063933
1592.3653031870672,22.110904865188495
1612.4035073292382,24.222620498380657
1632.4417114714092,21.86246773187177
1652.4799156135805,23.601527665088845
1672.5181197557515,22.483560565163582
1692.5563238979225,22.980434831797034
1712.5945280400938,21.73824916521341
1732.6327321822648,26.210117564914455
1752.6709363244358,18.384347865437626
1772.7091404666069,21.24137489857996
1792.747344608778,19.378096398704525
1812.7855487509491,17.51481789882909
1832.8237528931202,21.1171563319216
1852.8619570352912,22.23512343184686
1872.9001611774625,22.359341998505222
1892.9383653196335,22.85621626513867
1912.9765694618045,20.992937765263235
1933.0147736039755,20.620282065288148
1953.0529777461466,22.359341998505222
1973.0911818883178,21.24137489857996
1993.1293860304888,19.874970665337976
2013.1675901726599,19.999189231996336
2033.205794314831,17.763255032145814
2053.243998457002,22.23512343184686
2073.282202599173,18.50856643209599
2093.3204067413444,18.63278499875435
2113.358610883515,20.992937765263235
2133.3968150256865,18.757003565412713
2153.4350191678577,18.881222132071077
2173.4732233100285,21.489812031896683
2193.5114274521998,15.775757965612017
2213.5496315943706,18.881222132071077
2233.587835736542,18.384347865437626
2253.626039878713,16.645287932220555
2273.664244020884,16.396850798903827
2293.702448163055,16.769506498878915
2313.740652305226,19.50231496536289
2333.778856447397,19.378096398704525
2353.8170605895684,17.763255032145814
2373.855264731739,17.142162198854002
2393.8934688739105,16.396850798903827
2413.9316730160817,17.266380765512366
2433.9698771582525,16.024195098928743
2454.008081300424,17.142162198854002
2474.046285442595,15.527320832295292
2494.084489584766,16.89372506553728
2514.122693726937,14.40935373237003
2534.160897869108,13.539823765761495
2554.199102011279,15.527320832295292
2574.2373061534504,13.78826089907822
2594.275510295621,14.782009432345118
2614.3137144377924,14.533572299028394
2634.3519185799632,14.782009432345118
2654.3901227221345,13.78826089907822
2674.4283268643057,14.657790865686756
2694.4665310064765,14.036698032394945
2714.504735148648,13.664042332419857
2734.542939290819,11.055452432594247
2754.58114343299,11.428108132569335
2774.619347575161,14.40935373237003
2794.6575517173324,14.657790865686756
2814.695755859503,11.67654526588606
2834.7339600016744,12.794512365811322
2854.772164143845,11.428108132569335
2874.8103682860165,12.297638099177872
2894.8485724281877,13.912479465736581
2914.8867765703585,14.782009432345118
2934.9249807125298,12.546075232494596
2954.9631848547006,14.90622799900348
2975.001388996872,13.042949499128046
2995.039593139043,11.055452432594247
3015.077797281214,12.421856665836234
3035.116001423385,13.912479465736581
3055.1542055655564,11.179670999252611
3075.192409707727,10.931233865935885
3095.2306138498984,9.689048199352262
3115.2688179920697,10.931233865935885
3135.3070221342405,9.937485332668988
3155.3452262764117,10.434359599302436
3175.3834304185825,9.316392499377175
3195.421634560754,10.185922465985712
3215.459838702925,8.198425399451914
3235.498042845096,7.701551132818465
3255.536246987267,9.937485332668988
3275.574451129438,9.937485332668988
3295.612655271609,8.695299666085363
3315.6508594137804,8.695299666085363
3335.689063555951,8.571081099427001
3355.7272676981224,6.707802599551567
3375.7654718402937,10.682796732619162
3395.8036759824645,6.832021166209929
3415.8418801246357,7.94998826613519
3435.880084266807,8.198425399451914
3455.918288408978,7.080458299526653
3475.956492551149,5.217179799651218
3495.99469669332,6.459365466234842
3516.032900835491,7.825769699476828
3536.0711049776623,6.832021166209929
3556.109309119833,7.45311399950174
3576.1475132620044,6.832021166209929
3596.185717404175,8.198425399451914
3616.2239215463464,5.7140540662846675
3636.2621256885177,6.583584032893204
3656.3003298306885,4.968742666334494
3676.3385339728598,8.198425399451914
3696.376738115031,8.074206832793552
3716.414942257202,6.210928332918117
3736.453146399373,5.962491199601392
3756.4913505415443,6.210928332918117
3776.529554683715,5.341398366309581
3796.5677588258864,3.72655699975087
3816.605962968057,4.596086966359406
3836.6441671102284,4.720305533017769
3856.6823712523997,5.217179799651218
3876.7205753945705,5.092961232992856
3896.7587795367417,5.092961232992856
3916.7969836789125,4.471868399701044
3936.8351878210838,5.465616932967943
3956.873391963255,5.217179799651218
3976.911596105426,5.092961232992856
3996.949800247597,4.844524099676131
4016.9880043897683,4.347649833042682
4037.026208531939,4.720305533017769
4057.0644126741104,3.4781198664341453
4077.1026168162816,3.974994133067595
4097.140820958452,3.1054641664590585
4117.179025100623,3.3539012997757833
4137.217229242795,2.7328084664839714
4157.255433384966,2.8570270331423337
4177.2936375271365,2.3601527665088846
4197.331841669308,1.9874970665337974
4217.370045811479,2.7328084664839714
4237.40824995365,2.3601527665088846
4257.4464540958215,2.3601527665088846
4277.484658237992,3.1054641664590585
4297.522862380163,3.6023384330925077
4317.561066522335,2.608589899825609
4337.599270664506,3.1054641664590585
4357.637474806676,2.8570270331423337
4377.675678948847,2.484371333167247
4397.713883091019,2.8570270331423337
4417.75208723319,2.235934199850522
4437.7902913753605,2.235934199850522
4457.828495517532,2.3601527665088846
4477.866699659703,3.1054641664590585
4497.904903801874,3.3539012997757833
4517.943107944046,1.863278499875435
4537.981312086216,2.3601527665088846
4558.019516228387,1.9874970665337974
4578.057720370559,1.863278499875435
4598.09592451273,3.1054641664590585
4618.1341286549,2.235934199850522
4638.172332797071,1.863278499875435
4658.210536939243,1.863278499875435
4678.248741081414,2.235934199850522
4698.286945223585,1.3664042332419857
4718.325149365756,1.3664042332419857
4738.363353507927,2.3601527665088846
4758.401557650098,0.8695299666085363
4778.43976179227,1.863278499875435
4798.47796593444,2.484371333167247
4818.516170076611,1.7390599332170726
4838.554374218783,1.9874970665337974
4858.592578360954,2.11171563319216
4878.6307825031245,1.6148413665587105
4898.668986645296,2.11171563319216
4918.707190787467,1.6148413665587105
4938.745394929638,2.11171563319216
4958.7835990718095,2.11171563319216
4978.82180321398,2.484371333167247
4998.860007356151,1.490622799900348
5018.898211498322,1.490622799900348
5038.936415640494,1.6148413665587105
5058.974619782664,1.2421856665836235
5079.012823924835,2.235934199850522
5099.051028067007,0.9937485332668987
5119.089232209178,0.9937485332668987
5139.1274363513485,1.2421856665836235
5159.16564049352,1.2421856665836235
5179.203844635691,1.3664042332419857
5199.242048777862,1.3664042332419857
5219.2802529200335,0.8695299666085363
5239.318457062204,3.4781198664341453
5259.356661204375,1.6148413665587105
5279.394865346546,1.6148413665587105
5299.433069488718,1.2421856665836235
5319.471273630888,1.6148413665587105
5339.509477773059,2.3601527665088846
5359.547681915231,1.9874970665337974
5379.585886057402,3.4781198664341453
5399.6240901995725,4.347649833042682
5419.662294341744,2.11171563319216
5439.700498483915,3.3539012997757833
5459.738702626086,4.347649833042682
5479.7769067682575,1.9874970665337974
5499.815110910428,1.9874970665337974
5519.853315052599,2.981245599800696
5539.891519194771,1.9874970665337974
5559.929723336942,1.3664042332419857
5579.967927479112,0.8695299666085363
5600.006131621284,0.8695299666085363
5620.044335763455,1.490622799900348
5640.082539905626,1.3664042332419857
5660.1207440477965,0.9937485332668987
5680.158948189968,1.6148413665587105
5700.197152332139,1.117967099925261
5720.23535647431,0.9937485332668987
5740.2735606164815,1.117967099925261
5760.311764758652,0.8695299666085363
5780.349968900823,0.24843713331672468
5800.388173042995,1.3664042332419857
5820.426377185166,0.9937485332668987
5840.464581327336,1.7390599332170726
5860.502785469508,1.117967099925261
5880.540989611679,1.6148413665587105
5900.57919375385,2.608589899825609
5920.6173978960205,2.7328084664839714
5940.655602038192,1.7390599332170726
5960.693806180363,1.863278499875435
5980.732010322534,1.7390599332170726
6000.7702144647055,2.608589899825609
6020.808418606876,2.3601527665088846
6040.846622749047,1.3664042332419857
6060.884826891219,1.7390599332170726
6080.92303103339,1.3664042332419857
6100.96123517556,1.3664042332419857
6120.999439317732,0.9937485332668987
6141.037643459903,1.490622799900348
6161.075847602074,1.2421856665836235
6181.114051744245,1.490622799900348
6201.152255886416,1.7390599332170726
6221.190460028587,1.2421856665836235
6241.228664170759,1.6148413665587105
6261.26686831293,2.484371333167247
6281.3050724551,2.235934199850522
6301.343276597271,3.1054641664590585
6321.381480739443,4.22343126638432
6341.419684881614,5.5898354996263055
6361.457889023784,6.832021166209929
6381.496093165956,6.210928332918117
6401.534297308127,7.577332566160103
6421.572501450298,7.825769699476828
6441.6107055924695,5.465616932967943
6461.64890973464,4.22343126638432
6481.687113876811,3.1054641664590585
6501.725318018983,2.3601527665088846
6521.763522161154,2.3601527665088846
6541.801726303324,1.6148413665587105
6561.839930445495,0.745311399950174
6581.878134587667,0.745311399950174
6601.916338729838,1.3664042332419857
6621.9545428720085,0.8695299666085363
6641.99274701418,1.117967099925261
6662.030951156351,0.8695299666085363
6682.069155298522,0.8695299666085363
6702.1073594406935,0.9937485332668987
6722.145563582864,0.6210928332918118
6742.183767725035,0.745311399950174
6762.221971867207,0.6210928332918118
6782.260176009378,0.6210928332918118
6802.298380151548,1.7390599332170726
6822.33658429372,0.9937485332668987
6842.374788435891,1.3664042332419857
6862.412992578062,1.490622799900348
6882.451196720233,1.7390599332170726
6902.489400862404,1.2421856665836235
6922.527605004575,2.3601527665088846
6942.565809146746,1.490622799900348
6962.6040132889175,1.7390599332170726
6982.642217431088,1.6148413665587105
7002.680421573259,1.2421856665836235
7022.718625715431,1.6148413665587105
7042.756829857602,2.3601527665088846
7062.795033999772,2.235934199850522
7082.833238141944,1.7390599332170726
7102.871442284115,1.6148413665587105
7122.909646426286,2.608589899825609
7142.947850568457,1.490622799900348
7162.986054710628,1.9874970665337974
7183.024258852799,1.2421856665836235
7203.06246299497,1.2421856665836235
7223.1006671371415,0.6210928332918118
7243.138871279312,0.9937485332668987
7263.177075421483,1.9874970665337974
7283.215279563655,0.745311399950174
7303.253483705826,1.490622799900348
7323.291687847996,1.863278499875435
7343.329891990168,1.7390599332170726
7363.368096132339,1.2421856665836235
7383.40630027451,1.117967099925261
7403.444504416681,1.490622799900348
7423.482708558852,2.8570270331423337
7443.520912701023,2.3601527665088846
7463.559116843195,2.981245599800696
7483.5973209853655,2.7328084664839714
7503.635525127536,2.484371333167247
7523.673729269708,2.11171563319216
7543.711933411879,1.863278499875435
7563.75013755405,1.117967099925261
7583.78834169622,2.235934199850522
7603.826545838392,2.7328084664839714
7623.864749980563,1.6148413665587105
7643.902954122734,1.7390599332170726
7663.941158264905,2.11171563319216
7683.979362407076,2.3601527665088846
7704.017566549247,2.3601527665088846
7724.055770691419,2.235934199850522
7744.0939748335895,2.7328084664839714
7764.13217897576,2.8570270331423337
7784.170383117932,4.968742666334494
7804.208587260103,4.968742666334494
7824.246791402274,4.968742666334494
7844.284995544444,4.099212699725957
7864.323199686616,4.844524099676131
7884.361403828787,7.328895432843378
7904.399607970958,9.316392499377175
7924.437812113129,13.29138663244477
7944.4760162553,24.719494765014105
7964.514220397471,38.2593185307756
7984.552424539643,43.228061197110094
8004.5906286818135,59.87334912933065
8024.628832823984,66.9538074288573
8044.667036966156,70.05927159531636
8064.705241108327,67.82333739546584
8084.743445250498,60.24600482930573
8104.781649392669,43.228061197110094
8124.81985353484,29.439800298031873
8144.858057677011,18.50856643209599
8164.896261819183,11.303889565910973
8184.934465961353,7.45311399950174
8204.972670103525,4.596086966359406
8225.010874245696,2.608589899825609
8245.049078387867,3.229682733117421
8265.08728253004,3.3539012997757833
8285.12548667221,3.3539012997757833
8305.163690814381,1.9874970665337974
8325.201894956552,4.968742666334494
8345.240099098723,3.72655699975087
8365.278303240893,4.099212699725957
8385.316507383064,4.22343126638432
8405.354711525237,5.7140540662846675
8425.392915667408,5.092961232992856
8445.431119809578,8.943736799402089
8465.46932395175,15.154665132320206
8485.50752809392,24.47105763169738
8505.54573223609,41.98587553052647
8525.583936378263,68.81708592873274
8545.622140520434,113.03889565910973
8565.660344662605,163.84428942237992
8585.698548804776,215.0223388856252
8605.736752946947,255.02071734961788
8625.774957089117,271.169131015205
8645.81316123129,267.3183554487957
8665.85136537346,251.54259748318373
8685.889569515632,196.8864281535043
8705.927773657802,145.33572299028393
8725.965977799973,100.6170389932735
8746.004181942144,64.71787322900678
8766.042386084315,34.90541723099982
8786.080590226487,23.974183365063933
8806.118794368658,15.527320832295292
8826.156998510829,12.670293799152958
8846.195202653,15.527320832295292
8866.23340679517,16.148413665587103
8886.271610937341,18.011692165462538
8906.309815079514,19.62653353202125
8926.348019221685,18.757003565412713
8946.386223363856,15.89997653227038
8966.424427506026,12.297638099177872
8986.462631648197,8.198425399451914
9006.500835790368,7.45311399950174
9026.539039932539,4.844524099676131
9046.577244074711,4.471868399701044
9066.615448216882,2.484371333167247
9086.653652359053,3.229682733117421
9106.691856501224,2.8570270331423337
9126.730060643395,1.7390599332170726
9146.768264785565,1.2421856665836235
9166.806468927738,3.4781198664341453
9186.844673069909,2.608589899825609
9206.88287721208,2.484371333167247
9226.92108135425,3.4781198664341453
9246.959285496421,2.7328084664839714
9266.997489638592,2.8570270331423337
9287.035693780763,3.8507755664092325
9307.073897922935,6.086709766259754
9327.112102065106,6.832021166209929
9347.150306207277,7.204676866185015
9367.188510349448,8.943736799402089
9387.226714491619,12.794512365811322
9407.26491863379,13.167168065786408
9427.303122775962,16.89372506553728
9447.341326918133,21.24137489857996
9467.379531060304,26.45855469823118
9487.417735202474,30.433548831298772
9507.455939344645,38.50775566409232
9527.494143486816,41.48900126389302
9547.532347628989,42.358531230501555
9567.57055177116,51.17804946324529
9587.60875591333,47.69992959681114
9607.646960055501,46.20930679691079
9627.685164197672,36.52025859755853
9647.723368339843,23.601527665088845
9667.761572482013,19.378096398704525
9687.799776624186,15.030446565661842
9707.837980766357,7.080458299526653
9727.876184908528,6.086709766259754
9747.914389050698,3.974994133067595
9767.95259319287,2.3601527665088846
9787.99079733504,1.3664042332419857
9808.029001477213,1.117967099925261
9828.067205619383,1.6148413665587105
9848.105409761554,2.11171563319216
9868.143613903725,1.2421856665836235
9888.181818045896,1.6148413665587105
9908.220022188067,1.490622799900348
9928.25822633024,1.490622799900348
9948.29643047241,1.117967099925261
9968.33463461458,1.117967099925261
9988.372838756752,1.490622799900348
10008.411042898922,1.863278499875435
10028.449247041093,1.3664042332419857
10048.487451183264,1.9874970665337974
10068.525655325437,0.8695299666085363
10088.563859467607,1.117967099925261
10108.602063609778,2.235934199850522
10128.640267751949,0.8695299666085363
10148.67847189412,2.608589899825609
10168.71667603629,2.235934199850522
10188.754880178463,1.863278499875435
10208.793084320634,1.9874970665337974
10228.831288462805,1.9874970665337974
10248.869492604976,2.7328084664839714
10268.907696747146,2.3601527665088846
10288.945900889317,2.3601527665088846
10308.984105031488,2.484371333167247
10329.02230917366,2.8570270331423337
10349.060513315831,2.7328084664839714
10369.098717458002,2.3601527665088846
10389.136921600173,3.4781198664341453
10409.175125742344,2.981245599800696
10429.213329884515,2.608589899825609
10449.251534026687,4.596086966359406
10469.289738168858,4.844524099676131
10489.327942311029,5.962491199601392
10509.3661464532,7.577332566160103
10529.40435059537,6.832021166209929
10549.442554737541,6.583584032893204
10569.480758879712,9.316392499377175
10589.518963021885,10.682796732619162
10609.557167164055,14.90622799900348
10629.595371306226,17.639036465487454
10649.633575448397,25.46480616496428
10669.671779590568,39.62572276401759
10689.709983732739,57.3889777961634
10709.748187874911,71.9225500951918
10729.786392017082,104.46781455968272
10749.824596159253,138.8763575240491
10769.862800301424,182.60129298779265
10789.901004443595,219.12155158535117
10809.939208585765,240.73558218390622
10829.977412727938,240.85980075056457
10850.015616870109,249.92775611662503
10870.05382101228,233.65512388437955
10890.09202515445,213.15906038574977
10910.130229296621,158.50289105607035
10930.168433438792,124.09434809170398
10950.206637580963,84.96549959431984
10970.244841723135,55.649917862946324
